E(cm-1),I
0.01,6.182207955693916e-182
0.15511830366073218,1.1182182113647819e-181
0.30023660732146434,2.0217460032292931e-181
0.4453549109821965,3.6537910410737604e-181
0.5904732146429287,6.600516195367172e-181
0.7355915183036609,1.1918707903157765e-180
0.880709821964393,2.1512829388566014e-180
1.0258281256251252,3.881351462337189e-180
1.1709464292858573,6.999797707308399e-180
1.3160647329465895,1.2618423201578931e-179
1.4611830366073217,2.2737450655852957e-179
1.606301340268054,4.095392507002427e-179
1.751419643928786,7.373375884416317e-179
1.896537947589518,1.3269492034400113e-178
2.04165625125025,2.3870378366998667e-178
2.1867745549109823,4.292214219861851e-178
2.3318928585717145,7.714726888190124e-178
2.4770111622324467,1.3860433201214712e-177
2.622129465893179,2.489144639096661e-177
2.767247769553911,4.468281683327106e-177
2.9123660732146432,8.01766737196567e-177
3.0574843768753754,1.438045432642606e-176
3.2026026805361076,2.5781860869950454e-176
3.34772098419684,4.6203299932415684e-176
3.4928392878575716,8.27653984758643e-176
3.637957591518304,1.4819778302512283e-175
3.783075895179036,2.652477352069345e-175
3.928194198839768,4.7454646548146013e-175
4.0733125025005,8.486387975793603e-175
4.218430806161233,1.5169948396042137e-174
4.363549109821965,2.7105810963507963e-174
4.508667413482697,4.841253099702528e-174
4.653785717143429,8.64311421295633e-174
4.798904020804161,1.5424098743978833e-173
4.9440223244648935,2.7513536887358705e-173
5.089140628125626,4.9058032876888154e-173
5.234258931786358,8.743612817195047e-173
5.37937723544709,1.5577178164330226e-172
5.524495539107822,2.773982630571364e-172
5.6696138427685545,4.9378258468395336e-172
5.814732146429287,8.785872185145171e-172
5.959850450090019,1.5626117092544427e-171
6.104968753750751,2.7780134797870013e-171
6.250087057411483,4.936676901684438e-171
6.3952053610722155,8.769041809417272e-171
6.540323664732948,1.556992993737429e-170
6.68544196839368,2.7633650273195637e-170
6.830560272054412,4.902379602232876e-170
6.975678575715143,8.693460743468744e-170
7.120796879375876,1.540974808857506e-169
7.265915183036608,2.730332017859009e-169
7.41103348669734,4.8356233483116964e-169
7.556151790358072,8.560646243185482e-169
7.701270094018804,1.514878203221746e-168
7.8463883976795366,2.679575287585056e-168
7.991506701340269,4.737740745491373e-168
8.136625005001001,8.373243116676483e-168
8.281743308661733,1.4792214345759796e-167
8.426861612322465,2.612099779855071e-167
8.571979915983198,4.610663368608321e-167
8.71709821964393,8.134936144163557e-167
8.862216523304662,1.434702855461991e-166
9.007334826965394,2.5292214604541173e-166
9.152453130626126,4.456858384077844e-166
9.297571434286859,7.850329618987907e-166
9.44268973794759,1.3821781744563747e-165
9.587808041608323,2.432524653771731e-165
9.732926345269055,4.279248935417443e-165
9.878044648929787,7.524799509362293e-165
10.02316295259052,1.322633126918766e-164
10.168281256251252,2.3238117312737138e-164
10.313399559911984,4.081121878891076e-164
10.458517863572716,7.164324867271926e-164
10.603636167233448,1.2571527734268051e-163
10.74875447089418,2.2050473815384952e-163
10.893872774554913,3.866026931461599e-163
11.038991078215645,6.775305856766651e-163
11.184109381876377,1.1868887586888266e-162
11.32922768553711,2.078299862455045e-162
11.474345989197841,3.637671539455132e-162
11.619464292858574,6.364376107090725e-162
11.764582596519306,1.1130259043333143e-161
11.909700900180038,1.9456816752404177e-161
12.05481920384077,3.3998157872813293e-161
12.199937507501502,5.938217012528697e-161
12.345055811162235,1.036749476054625e-160
12.490174114822967,1.8092920099276346e-160
12.635292418483699,3.156171450712422e-160
12.780410722144431,5.5033811241141294e-160
12.925529025805163,9.592143645081492e-160
13.070647329465896,1.671163104242686e-159
13.215765633126628,2.9103088822585933e-159
13.36088393678736,5.066130956169247e-159
13.506002240448092,8.815172595604045e-159
13.651120544108824,1.5332123509299742e-158
13.796238847769557,2.6655748326837887e-158
13.941357151430287,4.632298430812057e-158
14.08647545509102,8.046726917589312e-158
14.231593758751751,1.3972016063217591e-157
14.376712062412484,2.425023606876482e-157
14.521830366073216,4.207168887521063e-157
14.666948669733948,7.295935781401467e-157
14.81206697339468,1.2647047225696575e-156
14.957185277055412,2.1913631733935286e-156
15.102303580716145,3.7953921813321795e-156
15.247421884376877,6.570766576267611e-156
15.392540188037609,1.1370838757511344e-155
15.537658491698341,1.9669170454445385e-155
15.682776795359073,3.400921971419537e-155
15.827895099019806,5.877929499887764e-155
15.973013402680538,1.0154748196287416e-154
16.118131706341273,1.753601974812915e-154
16.263250010002004,3.0269829448970875e-154
16.408368313662738,5.222831360318865e-154
16.55348661732347,9.007807848229439e-154
16.698604920984202,1.5529207916117318e-153
16.843723224644933,2.6760645007937727e-153
16.988841528305667,4.6095754753196544e-153
17.133959831966397,7.93674386134041e-153
17.27907813562713,1.3659691159996357e-152
17.42419643928786,2.3499383929950293e-152
17.569314742948595,4.041002827806476e-152
17.714433046609326,6.946066118740821e-152
17.85955135027006,1.1934541876409314e-151
18.00466965393079,2.04969703753755e-151
18.149787957591524,3.518768335551995e-151
18.294906261252255,6.038217577365003e-151
18.44002456491299,1.0357237186980284e-150
18.58514286857372,1.775808649203106e-150
18.73026117223445,3.0434452464903873e-150
18.875379475895183,5.213770374277313e-150
19.020497779555914,8.928024802708506e-150
19.165616083216648,1.5281850870529397e-149
19.310734386877378,2.6146502741395067e-149
19.455852690538112,4.471655510136775e-149
19.600970994198843,7.644342745716349e-149
19.746089297859577,1.3062582442517565e-148
19.891207601520307,2.231182109238337e-148
20.03632590518104,3.8094131300270184e-148
20.18144420884177,6.501270120906018e-148
20.326562512502505,1.1090609868004018e-147
20.471680816163236,1.8911663297893804e-147
20.61679911982397,3.223451252104832e-147
20.7619174234847,5.491987847273934e-147
20.907035727145434,9.353089913706324e-147
21.052154030806165,1.592200412883225e-146
21.1972723344669,2.7093021154938945e-146
21.34239063812763,4.608230786929582e-146
21.487508941788363,7.8348031104811455e-146
21.632627245449093,1.3314934492997866e-145
21.777745549109827,2.2618669887923235e-145
21.922863852770558,3.840715794555971e-145
22.06798215643129,6.518900639802301e-145
22.213100460092022,1.1059961951373282e-144
22.358218763752756,1.8756421562923237e-144
22.503337067413486,3.1795335986828724e-144
22.64845537107422,5.387582493459154e-144
22.79357367473495,9.125181861082926e-144
22.938691978395685,1.5449207456876754e-143
23.083810282056415,2.614495885156737e-143
23.22892858571715,4.422693074389901e-143
23.37404688937788,7.478297204082316e-143
23.519165193038614,1.2639669601813686e-142
23.664283496699344,2.1354322806693805e-142
23.809401800360078,3.6062262173383974e-142
23.95452010402081,6.087475275043075e-142
24.099638407681542,1.0271610326907756e-141
24.244756711342273,1.7324349687212886e-141
24.389875015003007,2.9207368383885085e-141
24.534993318663737,4.922038386957909e-141
24.68011162232447,8.291147581562992e-141
24.8252299259852,1.3960512950164598e-140
24.970348229645936,2.3496608844576357e-140
25.115466533306666,3.952993310786723e-140
25.2605848369674,6.647587351516414e-140
25.40570314062813,1.1174268620661658e-139
25.550821444288864,1.8775488389879886e-139
25.695939747949595,3.153410136236215e-139
25.84105805161033,5.2940343743623506e-139
25.98617635527106,8.884032436021539e-139
26.131294658931793,1.490220712040352e-138
26.276412962592524,2.4986655896064978e-138
26.421531266253258,4.1877693861930116e-138
26.566649569913988,7.015755745729366e-138
26.711767873574722,1.1748522271908544e-137
26.856886177235452,1.966568640465111e-137
27.002004480896186,3.2904254492716535e-137
27.147122784556917,5.503159275197853e-137
27.29224108821765,9.200028880645802e-137
27.43735939187838,1.5373876211124829e-136
27.582477695539115,2.567997816200071e-136
27.727595999199846,4.28768627823469e-136
27.872714302860576,7.15596872268172e-136
28.01783260652131,1.1937982751451113e-135
28.16295091018204,1.9907216586055203e-135
28.308069213842774,3.318235589378938e-135
28.453187517503505,5.528673887327585e-135
28.59830582116424,9.207713785396202e-135
28.74342412482497,1.5328502525907402e-134
28.888542428485703,2.550731406007338e-134
29.033660732146434,4.2427438267113724e-134
29.178779035807167,7.054170818848715e-134
29.323897339467898,1.1723633005066288e-133
29.469015643128632,1.9475810437044043e-133
29.614133946789362,3.2340441449240217e-133
29.759252250450096,5.3680114037911866e-133
29.904370554110827,8.906313883977465e-133
30.04948885777156,1.4770651278431875e-132
30.19460716143229,2.4486029824687757e-132
30.339725465093025,4.0574594141210057e-132
30.484843768753755,6.720584959038228e-132
30.62996207241449,1.1126973352568774e-131
30.77508037607522,1.8414676821358857e-131
30.920198679735954,3.046268893710622e-131
31.065316983396684,5.037202976260606e-131
31.210435287057418,8.325834002647759e-131
31.35555359071815,1.3755713612378372e-130
31.500671894378883,2.2717240933810253e-130
31.645790198039613,3.750119644713283e-130
31.790908501700347,6.1880205107559595e-130
31.936026805361077,1.0206467249549757e-129
32.081145109021804,1.682736942305224e-129
32.22626341268254,2.773154673277138e-129
32.37138171634327,4.5682413240167006e-129
32.516500020004,7.522133972012827e-129
32.66161832366473,1.2380841710808294e-128
32.80673662732547,2.0369311948870165e-128
32.9518549309862,3.349805786750744e-128
33.09697323464693,5.50655496635403e-128
33.24209153830766,9.048100379160701e-128
33.3872098419684,1.48611330477372e-127
33.53232814562913,2.4398521832558275e-127
33.67744644928986,4.0039826796385485e-127
33.82256475295059,6.568072615747746e-127
33.96768305661133,1.0769629980078165e-126
34.11280136027206,1.7651462719257633e-126
34.25791966393279,2.891862891634885e-126
34.40303796759352,4.73578282478604e-126
34.54815627125426,7.752163769581423e-126
34.69327457491499,1.2684436559718782e-125
34.83839287857572,2.0746101749613422e-125
34.98351118223645,3.391711527710247e-125
35.128629485897186,5.542661961635107e-125
35.273747789557916,9.053884678327911e-125
35.41886609321865,1.4783205211126203e-124
35.56398439687938,2.4127889413566187e-124
35.709102700540114,3.9362905070943206e-124
35.854221004200845,6.419068838097813e-124
35.999339307861575,1.046342834068006e-123
36.144457611522306,1.7048770190073944e-123
36.28957591518304,2.7767014693752345e-123
36.434694218843774,4.5204576462128744e-123
36.579812522504504,7.356185970548465e-123
36.724930826165235,1.1965754179121987e-122
36.87004912982597,1.9455595763592913e-122
37.0151674334867,3.162030632113693e-122
37.16028573714743,5.136942358483221e-122
37.30540404080816,8.341811911781311e-122
37.450522344468894,1.354045240971143e-121
37.59564064812963,2.196964493009872e-121
37.74075895179036,3.5631161683724394e-121
37.88587725545109,5.7763567404736505e-121
38.03099555911182,9.360415193992613e-121
38.17611386277256,1.5161888550163379e-120
38.32123216643329,2.454870392896982e-120
38.46635047009402,3.973021518570147e-120
38.61146877375475,6.427326284407128e-120
38.75658707741549,1.0393381260250748e-119
38.90170538107622,1.6799658405977185e-119
39.04682368473695,2.714320486243457e-119
39.19194198839768,4.3836803530953465e-119
39.33706029205842,7.076747733310951e-119
39.48217859571915,1.1419461667423715e-118
39.62729689937988,1.841936392398145e-118
39.77241520304061,2.969755581795562e-118
39.917533506701346,4.786123126806939e-118
40.06265181036208,7.71017273265005e-118
40.20777011402281,1.2415420392307087e-117
40.35288841768354,1.9983696828961445e-117
40.498006721344275,3.2151949892454065e-117
40.643125025005006,5.170777868675677e-117
40.788243328665736,8.312306093283687e-117
40.933361632326466,1.3356856324541462e-116
41.078479935987204,2.1453791844407512e-116
41.223598239647934,3.4444584615476533e-116
41.368716543308665,5.527833099031175e-116
41.513834846969395,8.867597520313022e-116
41.65895315063013,1.421916538595748e-115
41.80407145429086,2.2790786828352965e-115
41.94918975795159,3.651418515656721e-115
42.094308061612324,5.847644857825477e-115
42.23942636527306,9.360896544691078e-115
42.38454466893379,1.4978591719637196e-114
42.52966297259452,2.395750578958796e-114
42.67478127625525,3.8302692285911084e-114
42.81989957991599,6.121164942202125e-114
42.96501788357672,9.778133088236145e-114
43.11013618723745,1.5613306558946416e-113
43.25525449089818,2.49201648469843e-113
43.40037279455892,3.9757952986888724e-113
43.54549109821965,6.340364152355666e-113
43.69060940188038,1.0106981457613025e-112
43.83572770554111,1.6104447022752607e-112
43.98084600920185,2.5649992724321207e-112
44.12596431286258,4.08362408407002e-112
44.27108261652331,6.498623067472987e-112
44.41620092018404,1.033746423784341e-111
44.56131922384478,1.643704611269236e-111
44.70643752750551,2.612465765163315e-111
44.85155583116624,4.150443665322132e-111
44.99667413482697,6.591063868396094e-111
45.141792438487705,1.0462454869506993e-110
45.286910742148436,1.6600790020206236e-110
45.432029045809166,2.6329402036940582e-110
45.5771473494699,4.174171771716755e-110
45.722265653130634,6.614800013389762e-110
45.867383956791365,1.0478043605519916e-109
46.012502260452095,1.659054929977316e-109
46.157620564112825,2.625780449256814e-109
46.30273886777356,4.154063551972774e-109
46.44785717143429,6.5690859390437e-109
46.592975475095024,1.0383740631252814e-108
46.738093778755754,1.6406645744303692e-108
46.883212082416485,2.5912114321068966e-108
47.02833038607722,4.0907504078127856e-108
47.17344868973795,6.455355954876887e-108
47.31856699339868,1.0182501625811163e-107
47.46368529705941,1.6054835591203625e-107
47.60880360072015,2.5303134153149428e-107
47.75392190438088,3.98620706571437e-107
47.89904020804161,6.277149500856192e-107
48.04415851170234,9.880573903450151e-107
48.18927681536308,1.5546010281905573e-106
48.33439511902381,2.444965928083853e-106
48.47951342268454,3.843649282607407e-106
48.62463172634527,6.039928201663662e-106
48.76975003000601,9.487174308966405e-106
48.91486833366674,1.4895636477737642e-105
49.05998663732747,2.3377514282981375e-105
49.2051049409882,3.667369578348923e-105
49.35022324464894,5.750797910017644e-105
49.49534154830967,9.014022035922147e-105
49.6404598519704,1.412297549841284e-104
49.78557815563113,2.2118255827899025e-104
49.930696459291866,3.462522700274921e-104
50.0758147629526,5.418155470967842e-104
50.22093306661333,8.474759396511259e-104
50.36605137027406,1.3250137121634373e-103
50.511169673934795,2.0707632515168678e-103
50.656287977595525,3.234875769103716e-103
50.801406281256256,5.051284684323216e-103
50.946524584916986,7.884300440721519e-103
51.091642888577724,1.2301032502152987e-102
51.236761192238454,1.91839064455705e-102
51.381879495899184,2.9905399656327208e-102
51.526997799559915,4.6599285163998975e-102
51.67211610322065,7.258150674306934e-102
51.81723440688138,1.1300295118170826e-101
51.96235271054211,1.758614593503895e-101
52.107471014202844,2.7357010737172373e-101
52.25258931786358,4.253864872585614e-101
52.39770762152431,6.611740811104687e-101
52.54282592518504,1.0272237018483718e-100
52.68794422884577,1.5952594426347982e-100
52.83306253250651,2.4763652289032147e-100
52.97818083616724,3.8425112866586396e-100
53.12329913982797,5.959813743367766e-100
53.2684174434887,9.23990069926656e-100
53.41353574714944,1.4319208126991167e-99
53.55865405081017,2.2181340069390576e-99
53.7037723544709,3.434580025852236e-99
53.84889065813163,5.315897283404663e-99
53.99400896179237,8.224255662426356e-99
54.1391272654531,1.2718435896340355e-98
54.28424556911383,1.9660198089397894e-98
54.42936387277456,3.037799835861571e-98
54.574482176435296,4.691886528708284e-98
54.71960048009603,7.243574437358944e-98
54.86471878375676,1.1178291626298326e-97
55.00983708741749,1.724308721172068e-97
55.154955391078225,2.658714444336256e-97
55.300073694738956,4.0977498807197416e-97
55.445191998399686,6.313007113257975e-97
55.590310302060416,9.721744254037774e-97
55.73542860572115,1.4964740372370746e-96
55.880546909381884,2.302561623482858e-96
56.025665213042615,3.5413627809031607e-96
56.170783516703345,5.444357764742432e-96
56.315901820364076,8.366426015003824e-96
56.46102012402481,1.2851398029465366e-95
56.60613842768554,1.9732306623058466e-95
56.751256731346274,3.028464012239233e-95
56.896375035007004,4.646051934425156e-95
57.04149333866774,7.124637690547479e-95
57.18661164232847,1.0920903989244466e-94
57.3317299459892,1.6732909996961429e-94
57.47684824964993,2.562721675468599e-94
57.62196655331067,3.9232726463934096e-94
57.7670848569714,6.003612034749747e-94
57.91220316063213,9.183195493695369e-94
58.05732146429286,1.4040808659735804e-93
58.2024397679536,2.145890185276527e-93
58.34755807161433,3.2782339743065534e-93
58.49267637527506,5.0059842777968056e-93
58.63779467893579,7.641103755030722e-93
58.78291298259653,1.1658422589144754e-92
58.92803128625726,1.7780360863293304e-92
59.07314958991799,2.7105562836609868e-92
59.21826789357872,4.130411958213704e-92
59.36338619723946,6.291372362230395e-92
59.50850450090019,9.57887469242012e-92
59.65362280456092,1.457809160469289e-91
59.79874110822165,2.2177058333403698e-91
59.943859411882386,3.372285101160568e-91
60.088977715543116,5.125800626824679e-91
60.23409601920385,7.787825591979118e-91
60.37921432286458,1.1827359702449907e-90
60.524332626525315,1.795463059809588e-90
60.669450930186045,2.7244712197801496e-90
60.814569233846775,4.132425719528684e-90
60.959687537507506,6.265344680987068e-90
61.10480584116824,9.495152879776906e-90
61.249924144828974,1.4383879498712661e-89
61.395042448489704,2.17804672147352e-89
61.540160752150435,3.296669636980161e-89
61.68527905581117,4.987704848092112e-89
61.8303973594719,7.542983270093236e-89
61.97551566313263,1.1402566774893578e-88
62.12063396679336,1.7229758292128815e-88
62.2657522704541,2.602392668765813e-88
62.41087057411483,3.9290137593283615e-88
62.55598887777556,5.92940825470403e-88
62.70110718143629,8.944503506062002e-88
62.84622548509703,1.3487088419244017e-87
62.99134378875776,2.0328121686054493e-87
63.13646209241849,3.0626218732472064e-87
63.28158039607922,4.612183620593387e-87
63.42669869973996,6.942835563299665e-87
63.57181700340069,1.044682334052693e-86
63.71693530706142,1.5712623457574662e-86
63.86205361072215,2.3622738176900908e-86
64.0071719143829,3.550004069770123e-86
64.15229021804362,5.332668001663791e-86
64.29740852170436,8.00713817615855e-86
64.44252682536509,1.2017861112003212e-85
64.58764512902582,1.8029933268253088e-85
64.73276343268655,2.703822259265402e-85
64.87788173634729,4.053024601173112e-85
65.02300004000801,6.072918064449598e-85
65.16811834366875,9.09562788765044e-85
65.31323664732948,1.3617112595237782e-84
65.45835495099021,2.0377666649469052e-84
65.60347325465095,3.0481824588497463e-84
65.74859155831167,4.557687525101569e-84
65.89370986197241,6.811852176538605e-84
66.03882816563313,1.0176606080091402e-83
66.18394646929387,1.519699757843424e-83
66.32906477295461,2.2684525822087046e-83
66.47418307661533,3.384688438543008e-83
66.61930138027607,5.048063059006541e-83
66.76441968393681,7.525717743635882e-83
66.90953798759753,1.1214712934973132e-82
67.05465629125827,1.6704961456412495e-82
67.19977459491899,2.4872524970837527e-82
67.34489289857973,3.7017863888608095e-82
67.49001120224047,5.507061341219575e-82
67.63512950590119,8.189276877359497e-82
67.78024780956193,1.2172738056278906e-81
67.92536611322267,1.808623125249711e-81
68.07048441688339,2.686117234915211e-81
