E(cm-1),I
0.01,3.329628760561949e-54
0.15511830366073218,4.5903784061880574e-54
0.30023660732146434,6.325840576888834e-54
0.4453549109821965,8.713749653727426e-54
0.5904732146429287,1.1998003805433624e-53
0.7355915183036609,1.6513152561084296e-53
0.880709821964393,2.271789417792124e-53
1.0258281256251252,3.1240878098603612e-53
1.1709464292858573,4.294330577015645e-53
1.3160647329465895,5.90044539304302e-53
1.4611830366073217,8.103846358845247e-53
1.606301340268054,1.1125375622699822e-52
1.751419643928786,1.5267054226035753e-52
1.896537947589518,2.0941746322764984e-52
2.04165625125025,2.871359839944689e-52
2.1867745549109823,3.9353143599797955e-52
2.3318928585717145,5.3912357073083495e-52
2.4770111622324467,7.382684179714154e-52
2.622129465893179,1.0105489192526809e-51
2.767247769553911,1.3826666080893607e-51
2.9123660732146432,1.8910137569283034e-51
3.0574843768753754,2.585169259610856e-51
3.2026026805361076,3.532647945005974e-51
3.34772098419684,4.825349955252634e-51
3.4928392878575716,6.588314972772343e-51
3.637957591518304,8.991599875290044e-51
3.783075895179036,1.2266387289374097e-50
3.928194198839768,1.6726822707647909e-50
4.0733125025005,2.2799604625823917e-50
4.218430806161233,3.1064063050750115e-50
4.363549109821965,4.2306420651522816e-50
4.508667413482697,5.7593223741120705e-50
4.653785717143429,7.8370672754828005e-50
4.798904020804161,1.0659892922624156e-49
4.9440223244648935,1.44933637028307e-49
5.089140628125626,1.9697114986662932e-49
5.234258931786358,2.6757968045541056e-49
5.37937723544709,3.633462835100802e-49
5.524495539107822,4.93179930444345e-49
5.6696138427685545,6.691248341253781e-49
5.814732146429287,9.074568504161807e-49
5.959850450090019,1.2301608439530761e-48
6.104968753750751,1.6669205327829448e-48
6.250087057411483,2.2577974286147196e-48
6.3952053610722155,3.0568359557659133e-48
6.540323664732948,4.1369128607608156e-48
6.68544196839368,5.596257561046956e-48
6.830560272054412,7.567215400032507e-48
6.975678575715143,1.0228020256592821e-47
7.120796879375876,1.3818603118230801e-47
7.265915183036608,1.866181109712337e-47
7.41103348669734,2.5191876313220644e-47
7.556151790358072,3.399259521730922e-47
7.701270094018804,4.584850839425707e-47
7.8463883976795366,6.181347805215071e-47
7.991506701340269,8.330253758955352e-47
8.136625005001001,1.122148576396454e-46
8.281743308661733,1.5109829907933174e-46
8.426861612322465,2.033695226271952e-46
8.571979915983198,2.736082850366514e-46
8.71709821964393,3.6795075617596996e-46
8.862216523304662,4.9461494731799e-46
9.007334826965394,6.6460232242883104e-46
9.152453130626126,8.926342644395162e-46
9.297571434286859,1.198401471369738e-45
9.44268973794759,1.6082301312601823e-45
9.587808041608323,2.157302947196821e-45
9.732926345269055,2.892618503494065e-45
9.878044648929787,3.876932718646355e-45
10.02316295259052,5.1940060300992606e-45
10.168281256251252,6.95558585855455e-45
10.313399559911984,9.310694206470839e-45
10.458517863572716,1.2457976051778005e-44
10.603636167233448,1.6662110150260795e-44
10.74875447089418,2.2275609284907837e-44
10.893872774554913,2.9767767387748073e-44
11.038991078215645,3.9763079913570695e-44
11.184109381876377,5.309221564734161e-44
11.32922768553711,7.085961110466047e-44
11.474345989197841,9.453306962812042e-44
11.619464292858574,1.2606247724828638e-43
11.764582596519306,1.6803702929559247e-43
11.909700900180038,2.2389337039652e-43
12.05481920384077,2.9819101556189913e-43
12.199937507501502,3.969766433194294e-43
12.345055811162235,5.282657294601538e-43
12.490174114822967,7.026790419684296e-43
12.635292418483699,9.34283426278695e-43
12.780410722144431,1.2417019697101482e-42
12.925529025805163,1.6495792172920395e-42
13.070647329465896,2.1905141543541547e-42
13.215765633126628,2.907609185897161e-42
13.36088393678736,3.8578299620634604e-42
13.506002240448092,5.116432068238368e-42
13.651120544108824,6.782790823064461e-42
13.796238847769557,8.988075597794773e-42
13.941357151430287,1.1905347881757438e-41
14.08647545509102,1.5762842822351514e-41
14.231593758751751,2.0861430285199333e-41
14.376712062412484,2.7597560732539464e-41
14.521830366073216,3.6493405737289684e-41
14.666948669733948,4.823643185042557e-41
14.81206697339468,6.37313377597378e-41
14.957185277055412,8.416818763606482e-41
15.102303580716145,1.1111175259854645e-40
15.247421884376877,1.4661861107359468e-40
15.392540188037609,1.9339056638904583e-40
15.537658491698341,2.5497555784985107e-40
15.682776795359073,3.360306538301476e-40
15.827895099019806,4.426661611743112e-40
15.973013402680538,5.828956748702512e-40
16.118131706341273,7.672244284628397e-40
16.263250010002004,1.009418111723416e-39
16.408368313662738,1.3275070754956968e-39
16.55348661732347,1.7450974229332965e-39
16.698604920984202,2.2930820297298818e-39
16.843723224644933,3.0118725173593557e-39
16.988841528305667,3.954309530654845e-39
17.133959831966397,5.189455812690868e-39
17.27907813562713,6.80753771814674e-39
17.42419643928786,8.926380087605434e-39
17.569314742948595,1.1699782151319967e-38
17.714433046609326,1.5328415227724815e-38
17.85955135027006,2.0073995318507868e-38
18.00466965393079,2.627770674824571e-38
18.149787957591524,3.4384141545806377e-38
18.294906261252255,4.497239238807367e-38
18.44002456491299,5.879641919909635e-38
18.58514286857372,7.683743257232899e-38
18.73026117223445,1.0037184181151424e-37
18.875379475895183,1.3105935400739087e-37
19.020497779555914,1.7105715063633684e-37
19.165616083216648,2.2316779640759257e-37
19.310734386877378,2.9103076294883996e-37
19.455852690538112,3.79370320569269e-37
19.600970994198843,4.943162485898469e-37
19.746089297859577,6.438185744898468e-37
19.891207601520307,8.381836770051024e-37
20.03632590518104,1.0907669663563837e-36
20.18144420884177,1.4188674832989227e-36
20.326562512502505,1.8448827747592904e-36
20.471680816163236,2.3977991232514654e-36
20.61679911982397,3.1151136741864836e-36
20.7619174234847,4.0453125554020276e-36
20.907035727145434,5.25106442491524e-36
21.052154030806165,6.813334199376859e-36
21.1972723344669,8.836679796417666e-36
21.34239063812763,1.1456069131198752e-35
21.487508941788363,1.4845649887940697e-35
21.632627245449093,1.9230026542257158e-35
21.777745549109827,2.4898755138127086e-35
21.922863852770558,3.2224965854975666e-35
22.06798215643129,4.1689278451720915e-35
22.213100460092022,5.391050154890952e-35
22.358218763752756,6.968502288794473e-35
22.503337067413486,9.003732897525189e-35
22.64845537107422,1.162847704044383e-34
22.79357367473495,1.5012055372766746e-34
22.938691978395685,1.937200429435749e-34
23.083810282056415,2.498768581620029e-34
23.22892858571715,3.2217704790836743e-34
23.37404688937788,4.152218890386786e-34
23.519165193038614,5.349127665098605e-34
23.664283496699344,6.888152718407717e-34
23.809401800360078,8.866243463335075e-34
23.95452010402081,1.1407582519422354e-33
24.099638407681542,1.4671167195776335e-33
24.244756711342273,1.8860482325178946e-33
24.389875015003007,2.4235835965157948e-33
24.534993318663737,3.1130084172818244e-33
24.68011162232447,3.9968667211888433e-33
24.8252299259852,5.1295128164207326e-33
24.970348229645936,6.580359988401742e-33
25.115466533306666,8.438014508238577e-33
25.2605848369674,1.0815533917467829e-32
25.40570314062813,1.385711242496605e-32
25.550821444288864,1.7746577026641342e-32
25.695939747949595,2.271818006246425e-32
25.84105805161033,2.907030293286843e-32
25.98617635527106,3.718284862333072e-32
26.131294658931793,4.753930635822456e-32
26.276412962592524,6.07547312209276e-32
26.421531266253258,7.76112088861443e-32
26.566649569913988,9.910278823647342e-32
26.711767873574722,1.2649238458444562e-31
26.856886177235452,1.6138381111395507e-31
27.002004480896186,2.0581292064323108e-31
27.147122784556917,2.6236287734938803e-31
27.29224108821765,3.3430988314783566e-31
27.43735939187838,4.258073242273135e-31
27.582477695539115,5.421183652564304e-31
27.727595999199846,6.899096089634862e-31
27.872714302860576,8.776216909719955e-31
28.01783260652131,1.1159367613088322e-30
28.16295091018204,1.4183679240795081e-30
28.308069213842774,1.8020021267993004e-30
28.453187517503505,2.2884360371833272e-30
28.59830582116424,2.904954525283568e-30
28.74342412482497,3.686013991077584e-30
28.888542428485703,4.675108575957092e-30
29.033660732146434,5.927117061346396e-30
29.178779035807167,7.511252973587353e-30
29.323897339467898,9.514771307615552e-30
29.469015643128632,1.2047623879408332e-29
29.614133946789362,1.5248303518176278e-29
29.759252250450096,1.929117747613573e-29
29.904370554110827,2.4395685503081788e-29
30.04948885777156,3.083787165377959e-29
30.19460716143229,3.8964835600155613e-29
30.339725465093025,4.9212834633236677e-29
30.484843768753755,6.212994864206558e-29
30.62996207241449,7.840444580621848e-29
30.77508037607522,9.890026726738569e-29
30.920198679735954,1.2470139795255097e-28
31.065316983396684,1.5716732447746966e-28
31.210435287057418,1.9800232005443213e-28
31.35555359071815,2.493419657932827e-28
31.500671894378883,3.138611489246149e-28
31.645790198039613,3.949088098658238e-28
31.790908501700347,4.966759893636528e-28
31.936026805361077,6.2440531305489705e-28
32.081145109021804,7.846520163735986e-28
32.22626341268254,9.85609047484822e-28
32.37138171634327,1.2375118004583289e-27
32.516500020004,1.5531417615820038e-27
32.66161832366473,1.948452966589858e-27
32.80673662732547,2.4433508726155578e-27
32.9518549309862,3.062660300667263e-27
33.09697323464693,3.83732781588674e-27
33.24209153830766,4.80591466942634e-27
33.3872098419684,6.016449701521473e-27
33.53232814562913,7.528727982795603e-27
33.67744644928986,9.417161165502444e-27
33.82256475295059,1.1774310406655019e-26
33.96768305661133,1.4715263388657464e-26
34.11280136027206,1.8383054722116733e-26
34.25791966393279,2.2955375490646135e-26
34.40303796759352,2.8652874874546084e-26
34.54815627125426,3.574942710164252e-26
34.69327457491499,4.458482339691776e-26
34.83839287857572,5.558045478158028e-26
34.98351118223645,6.925868196331139e-26
35.128629485897186,8.62667486107319e-26
35.273747789557916,1.0740629067365642e-25
35.41886609321865,1.336697352273294e-25
35.56398439687938,1.6628517750941748e-25
35.709102700540114,2.067716864948999e-25
35.854221004200845,2.5700743228783164e-25
35.999339307861575,3.193135708090287e-25
36.144457611522306,3.9655748466687274e-25
36.28957591518304,4.92279790440188e-25
36.434694218843774,6.108505144102035e-25
36.579812522504504,7.576610506394169e-25
36.724930826165235,9.39359995352301e-25
36.87004912982597,1.1641427583534142e-24
37.0151674334867,1.4421070568355455e-24
37.16028573714743,1.7856890857477533e-24
37.30540404080816,2.2101984367540596e-24
37.450522344468894,2.7344738319239142e-24
37.59564064812963,3.3816866029294646e-24
37.74075895179036,4.180324768690745e-24
37.88587725545109,5.165397770697401e-24
38.03099555911182,6.379910690046e-24
38.17611386277256,7.876667425731904e-24
38.32123216643329,9.720475261806321e-24
38.46635047009402,1.1990838977673343e-23
38.61146877375475,1.478525174850822e-23
38.75658707741549,1.822321325132929e-23
38.90170538107622,2.2451133493754894e-23
39.04682368473695,2.764831495152314e-23
39.19194198839768,3.403424688562409e-23
39.33706029205842,4.187749571559815e-23
39.48217859571915,5.150653586635464e-23
39.62729689937988,6.332293876747318e-23
39.77241520304061,7.781742629823456e-23
39.917533506701346,9.558940210636366e-23
40.06265181036208,1.1737070369436198e-22
40.20777011402281,1.4405447454701637e-22
40.35288841768354,1.767302443741007e-22
40.498006721344275,2.16726533379841e-22
40.643125025005006,2.656625712890525e-22
40.788243328665736,3.255110531931495e-22
40.933361632326466,3.986742535635248e-22
41.078479935987204,4.880763007281959e-22
41.223598239647934,5.972749931530586e-22
41.368716543308665,7.305972356955399e-22
41.513834846969395,8.933030121746422e-22
41.65895315063013,1.0917838183296035e-21
41.80407145429086,1.3338026902548482e-21
41.94918975795159,1.6287844180315005e-21
42.094308061612324,1.9881662807218748e-21
42.23942636527306,2.425821734712827e-21
42.38454466893379,2.9585720013083202e-21
42.52966297259452,3.606803513479105e-21
42.67478127625525,4.3952127935723884e-21
42.81989957991599,5.353704660151668e-21
42.96501788357672,6.5184748418799415e-21
43.11013618723745,7.933314274917601e-21
43.25525449089818,9.651179774578326e-21
43.40037279455892,1.1736084636292681e-20
43.54549109821965,1.4265373313862375e-20
43.69060940188038,1.7332456975725044e-20
43.83572770554111,2.1050101845944345e-20
43.98084600920185,2.5554380263086488e-20
44.12596431286258,3.1009415891556357e-20
44.27108261652331,3.76130801541588e-20
44.41620092018404,4.5603827501674603e-20
44.56131922384478,5.526889351941822e-20
44.70643752750551,6.695412318722264e-20
44.85155583116624,8.107574815450434e-20
44.99667413482697,9.813449320037177e-20
45.141792438487705,1.1873246493488655e-19
45.286910742148436,1.4359336240725714e-19
45.432029045809166,1.7358665215531727e-19
45.5771473494699,2.097564723523147e-19
45.722265653130634,2.5335617561737263e-19
45.867383956791365,3.0588959192549065e-19
46.012502260452095,3.6916029680120956e-19
46.157620564112825,4.453304114050933e-19
46.30273886777356,5.369907470562967e-19
46.44785717143429,6.472444452220257e-19
46.592975475095024,7.7980666451488045e-19
46.738093778755754,9.391233399124423e-19
46.883212082416485,1.130512599346897e-18
47.02833038607722,1.360333084402644e-18
47.17344868973795,1.636184203188161e-18
47.31856699339868,1.9671442657490846e-18
47.46368529705941,2.364053540575155e-18
47.60880360072015,2.8398505540536418e-18
47.75392190438088,3.4099714673927122e-18
47.89904020804161,4.092824147729689e-18
48.04415851170234,4.9103506488671894e-18
48.18927681536308,5.888694287384493e-18
48.33439511902381,7.058990406147482e-18
48.47951342268454,8.458303334792151e-18
48.62463172634527,1.0130736073604755e-17
48.76975003000601,1.2128743946186297e-17
48.91486833366674,1.4514689007448464e-17
49.05998663732747,1.736267849694902e-17
49.2051049409882,2.0760738256802738e-17
49.35022324464894,2.4813380978957483e-17
49.49534154830967,2.9644639630563147e-17
49.6404598519704,3.540164868714784e-17
49.78557815563113,4.2258870182381044e-17
49.930696459291866,5.042307841075639e-17
50.0758147629526,6.013923680285612e-17
50.22093306661333,7.169742350562049e-17
50.36605137027406,8.54409890922425e-17
50.511169673934795,1.01776161236847e-16
50.656287977595525,1.211833478592476e-16
50.801406281256256,1.4423043303480524e-16
50.946524584916986,1.7158840987070033e-16
51.091642888577724,2.040497527280858e-16
51.236761192238454,2.425499989576592e-16
51.381879495899184,2.881930892630484e-16
51.526997799559915,3.42281107704191e-16
51.67211610322065,4.063491692737303e-16
51.81723440688138,4.822063273189623e-16
51.96235271054211,5.719835176064068e-16
52.107471014202844,6.781897237308289e-16
52.25258931786358,8.037777435419371e-16
52.39770762152431,9.522211625521117e-16
52.54282592518504,1.1276044028000827e-15
52.68794422884577,1.3347280200247115e-15
52.83306253250651,1.5792317747570272e-15
52.97818083616724,1.8677384115502507e-15
53.12329913982797,2.208021553652708e-15
53.2684174434887,2.6092016678855534e-15
53.41353574714944,3.081974687699398e-15
53.55865405081017,3.638878614418341e-15
53.7037723544709,4.294604262542726e-15
53.84889065813163,5.0663572918873184e-15
53.99400896179237,5.9742797970219536e-15
54.1391272654531,7.041941025583987e-15
54.28424556911383,8.296908297465437e-15
54.42936387277456,9.771410926321392e-15
54.574482176435296,1.1503111937254549e-14
54.71960048009603,1.3536004668754011e-14
54.86471878375676,1.5921453987388052e-14
55.00983708741749,1.8719404881107713e-14
55.154955391078225,2.1999784689223685e-14
55.300073694738956,2.5844129240270265e-14
55.445191998399686,3.0347467778485503e-14
55.590310302060416,3.5620506851428216e-14
55.73542860572115,4.1792159403320777e-14
55.880546909381884,4.901247228250884e-14
56.025665213042615,5.745601335397153e-14
56.170783516703345,6.73257885534464e-14
56.315901820364076,7.885776969265202e-14
56.46102012402481,9.232612581184045e-14
56.60613842768554,1.0804926458831532e-13
56.751256731346274,1.2639680598818027e-13
56.896375035007004,1.4779762826603114e-13
57.04149333866774,1.7274914688315347e-13
57.18661164232847,2.0182801027918694e-13
57.3317299459892,2.357024230924538e-13
57.47684824964993,2.751463378291287e-13
57.62196655331067,3.210557906398672e-13
57.7670848569714,3.744676963486516e-13
57.91220316063213,4.365814628422023e-13
58.05732146429286,5.087838361025644e-13
58.2024397679536,5.926774453782381e-13
58.34755807161433,6.901135841745403e-13
58.49267637527506,8.032298379543788e-13
58.63779467893579,9.344932548630007e-13
58.78291298259653,1.086749852760405e-12
58.92803128625726,1.2632813658672257e-12
59.07314958991799,1.4678702590951673e-12
59.21826789357872,1.7048741795437344e-12
59.36338619723946,1.979311174837938e-12
59.50850450090019,2.296957189355639e-12
59.65362280456092,2.6644575546435625e-12
59.79874110822165,3.0894544224639483e-12
59.943859411882386,3.5807323513415322e-12
60.088977715543116,4.148384553979375e-12
60.23409601920385,4.80400264773671e-12
60.37921432286458,5.560893128257081e-12
60.524332626525315,6.434324212624798e-12
60.669450930186045,7.441807179043866e-12
60.814569233846775,8.603416871618402e-12
60.959687537507506,9.94215664877158e-12
61.10480584116824,1.1484373740434942e-11
61.249924144828974,1.3260231751590566e-11
61.395042448489704,1.5304247918316746e-11
61.540160752150435,1.7655903698614554e-11
61.68527905581117,2.0360338376698506e-11
61.8303973594719,2.3469136590282738e-11
61.97551566313263,2.7041222071409603e-11
62.12063396679336,3.114387144003818e-11
62.2657522704541,3.585386362534087e-11
62.41087057411483,4.12587824339687e-11
62.55598887777556,4.7458491961343025e-11
62.70110718143629,5.456680697771769e-11
62.84622548509703,6.271338314469858e-11
62.99134378875776,7.204585496245378e-11
63.13646209241849,8.273225274895094e-11
63.28158039607922,9.496373374973159e-11
63.42669869973996,1.0895766671391808e-10
63.57181700340069,1.249611139975246e-10
63.71693530706142,1.4325476052212713e-10
63.86205361072215,1.6415734478428628e-10
64.0071719143829,1.880306536435297e-10
64.15229021804362,2.1528514988557217e-10
64.29740852170436,2.463863096411281e-10
64.44252682536509,2.818617557253683e-10
64.58764512902582,3.223092829437837e-10
64.73276343268655,3.684058824906619e-10
64.87788173634729,4.209178848608221e-10
65.02300004000801,4.807123543292845e-10
65.16811834366875,5.487698831634642e-10
65.31323664732948,6.261989504693726e-10
65.45835495099021,7.14252029101056e-10
65.60347325465095,8.143436445606334e-10
65.74859155831167,9.280706124818406e-10
65.89370986197241,1.0572347063363397e-09
66.03882816563313,1.2038680346640008e-09
66.18394646929387,1.3702614376606098e-09
66.32906477295461,1.5589962466362512e-09
66.47418307661533,1.7729797869886758e-09
66.61930138027607,2.0154850462461217e-09
66.76441968393681,2.2901949737810963e-09
66.90953798759753,2.6012519283704182e-09
67.05465629125827,2.9533128442968983e-09
67.19977459491899,3.3516107466127123e-09
67.34489289857973,3.802023312011152e-09
67.49001120224047,4.3111492440125335e-09
67.63512950590119,4.886393310452699e-09
67.78024780956193,5.536060978183112e-09
67.92536611322267,6.269463675139164e-09
68.07048441688339,7.097035814234245e-09
68.21560272054413,8.030464827680384e-09
68.36072102420485,9.082835585171864e-09
68.50583932786559,1.0268790705815394e-08
68.65095763152632,1.1604708422725135e-08
68.79607593518705,1.3108899821889788e-08
68.94119423884779,1.4801827454392942e-08
69.08631254250852,1.6706347514537766e-08
69.23143084616925,1.8847977987224368e-08
69.37654914982998,2.1255195397407993e-08
