E(cm-1),I
0.01,1.5737243853040358e-76
0.1626005521104221,2.3529421232207213e-76
0.3152011042208442,3.5163455569162945e-76
0.46780165633126625,5.2525425862726786e-76
0.6204022084416884,7.842334267142789e-76
0.7730027605521105,1.1703583258457427e-75
0.9256033126625325,1.7457822794471062e-75
1.0782038647729546,2.602909359502389e-75
1.2308044168833767,3.879053250523789e-75
1.3834049689937988,5.778168073242568e-75
1.536005521104221,8.603047710055147e-75
1.688606073214643,1.2803014129453192e-74
1.841206625325065,1.904451207841458e-74
1.993807177435487,2.831556347945023e-74
2.146407729545909,4.20802487908645e-74
2.2990082816563313,6.250706705063872e-74
2.451608833766753,9.280634655064388e-74
2.604209385877175,1.3772854631661455e-73
2.7568099379875974,2.0429981963784652e-73
2.9094104900980193,3.029072966755544e-73
3.0620110422084417,4.4889960088781424e-73
3.2146115943188636,6.649460886667807e-73
3.367212146429286,9.845128399756844e-73
3.519812698539708,1.45698159497856e-72
3.6724132506501297,2.1551846197089769e-72
3.825013802760552,3.1864904762973784e-72
3.977614354870974,4.709106395817236e-72
4.130214906981396,6.956040680430729e-72
4.282815459091818,1.0270307712210571e-71
4.43541601120224,1.5156625880131567e-71
4.588016563312663,2.2357299158944143e-71
4.740617115423085,3.2963542477049925e-71
4.893217667533507,4.857872918734013e-71
5.0458182196439285,7.155766385988118e-71
5.19841877175435,1.0535711995691762e-70
5.351019323864773,1.5504913905163215e-70
5.503619875975195,2.2807230942219274e-70
5.656220428085617,3.3533083750591964e-70
5.808820980196039,4.928016569072981e-70
5.961421532306462,7.238832997335452e-70
6.1140220844168836,1.0628272669728226e-69
6.2666226365273054,1.5597484058589828e-69
6.419223188637727,2.287937441140061e-69
6.571823740748149,3.3545283973690394e-69
6.724424292858572,4.916052727438372e-69
6.877024844968994,7.201107996898871e-69
7.029625397079416,1.0543379731864722e-68
7.182225949189838,1.5429722126496815e-68
7.33482650130026,2.2570131726492253e-68
7.487427053410682,3.299953459550504e-68
7.640027605521104,4.822578085942076e-68
7.792628157631526,7.044472111265194e-68
7.945228709741948,1.0285262309779735e-67
8.09782926185237,1.50099768545926e-67
8.250429813962793,2.1894871730184093e-67
8.403030366073216,3.1922913435029824e-67
8.555630918183637,4.65222132340881e-67
8.70823147029406,6.776663908536712e-67
8.86083202240448,9.866639466378689e-67
9.013432574514903,1.435887131369504e-66
9.166033126625326,2.0886663974670187e-66
9.318633678735747,3.0367957901973955e-66
9.47123423084617,4.4132632102283604e-66
9.62383478295659,6.410646115143352e-66
9.776435335067013,9.307681400902791e-66
9.929035887177436,1.3507623506498997e-65
10.081636439287857,1.9593594578176026e-65
10.23423699139828,2.8408416087067014e-65
10.386837543508701,4.1169695540004055e-65
10.539438095619124,5.963565898030957e-65
10.692038647729547,8.634399168826292e-65
10.844639199839968,1.2495566617014249e-64
10.99723975195039,1.8074967223491057e-64
11.149840304060811,2.6133454104792812e-64
11.302440856171234,3.7767117884771125e-64
11.455041408281657,5.4554251942745714e-64
11.607641960392078,7.876641848489622e-64
11.7602425125025,1.1367143021015234e-63
11.912843064612924,1.6396806909820106e-63
12.065443616723345,2.3640952631930856e-63
12.218044168833767,3.406970675648696e-63
12.370644720944188,4.907604438485529e-63
12.523245273054611,7.065915474399813e-63
12.675845825165034,1.0168691166158891e-62
12.828446377275455,1.4627139708932368e-62
12.981046929385878,2.1030591794582966e-62
13.133647481496299,3.0223260216048562e-62
13.286248033606721,4.341390576532116e-62
13.438848585717144,6.233244183219417e-62
13.591449137827565,8.945346215800146e-62
13.744049689937988,1.2831513929212412e-61
13.896650242048409,1.8397396902500392e-61
14.049250794158832,2.6365292164186052e-61
14.201851346269255,3.776648195121076e-61
14.354451898379676,5.407271872825661e-61
14.507052450490098,7.738336543059188e-61
14.65965300260052,1.1069162244209573e-60
14.812253554710942,1.5826308425008204e-60
14.964854106821365,2.2617376592027192e-60
15.117454658931786,3.230744144953859e-60
15.270055211042209,4.6127576186780107e-60
15.422655763152632,6.582887543567708e-60
15.575256315263053,9.390094643086751e-60
15.727856867373475,1.3388170526804919e-59
15.880457419483896,1.9079642524576785e-59
16.03305797159432,2.717796681152523e-59
16.185658523704742,3.869558589173029e-59
16.338259075815166,5.506854752480711e-59
16.490859627925587,7.833278169459667e-59
16.64346018003601,1.1137333097941165e-58
16.796060732146433,1.5827655931928556e-58
16.948661284256854,2.2482765210361516e-58
17.101261836367275,3.1921300880675295e-58
17.253862388477696,4.530114412114858e-58
17.40646294058812,6.425922624993037e-58
17.55906349269854,9.110863612721368e-58
17.711664044808963,1.2911637699695803e-57
17.864264596919387,1.828945858389835e-57
18.016865149029808,2.5895130253016617e-57
18.16946570114023,3.664654893110228e-57
18.322066253250654,5.183770880306633e-57
18.474666805361075,7.329194467673443e-57
18.627267357471496,1.0357726158885406e-56
18.779867909581917,1.463087624363529e-56
18.93246846169234,2.065732018843747e-56
19.085069013802762,2.915247004380481e-56
19.237669565913183,4.112202253012508e-56
19.390270118023608,5.797907841845579e-56
19.54287067013403,8.170824481863792e-56
19.69547122224445,1.150954585022372e-55
19.848071774354874,1.6204969781674544e-55
20.000672326465295,2.280531083341461e-55
20.153272878575716,3.20790500240684e-55
20.30587343068614,4.510292773819018e-55
20.458473982796562,6.338488420698772e-55
20.611074534906983,8.903574582461813e-55
20.763675087017404,1.2500887102860858e-54
20.91627563912783,1.7543449754587038e-54
21.06887619123825,2.4608599257864423e-54
21.22147674334867,3.45029733682313e-54
21.374077295459095,4.8353051182772875e-54
21.526677847569516,6.773123238747187e-54
21.679278399679937,9.483132172838029e-54
21.83187895179036,1.3271266241062688e-53
21.984479503900783,1.856396121279702e-53
22.137080056011204,2.595533718428302e-53
22.289680608121625,3.627274562493738e-53
22.44228116023205,5.0667784843195835e-53
22.59488171234247,7.074261955261344e-53
22.74748226445289,9.872521528566352e-53
22.900082816563316,1.3771231334738019e-52
23.052683368673737,1.9200617254295113e-52
23.205283920784158,2.675810412742211e-52
23.357884472894582,3.7272903138529945e-52
23.510485025005003,5.189539647921169e-52
23.663085577115424,7.222078093146606e-52
23.81568612922585,1.0046001956301153e-51
23.96828668133627,1.396760899129051e-51
24.12088723344669,1.9411031382444775e-51
24.273487785557112,2.6963290256373183e-51
24.426088337667537,3.743647028177164e-51
24.578688889777958,5.1953478903694894e-51
24.73128944188838,7.2066280229364e-51
24.883889993998803,9.991882320216523e-51
25.036490546109224,1.3847145230254542e-50
25.189091098219645,1.9180985460681501e-50
25.34169165033007,2.6557018580507e-50
25.49429220244049,3.6752378543332313e-50
25.64689275455091,5.083810068892708e-50
25.799493306661333,7.028957463874016e-50
25.952093858771757,9.713824341259739e-50
26.10469441088218,1.3417985200681269e-49
26.2572949629926,1.8526018938714742e-49
26.409895515103024,2.5566697391369202e-49
26.562496067213445,3.5266705476617784e-49
26.715096619323866,4.862424634225597e-49
26.86769717143429,6.7009844073208245e-49
27.02029772354471,9.230432782868335e-49
27.172898275655132,1.2708762187949625e-48
27.325498827765557,1.7489692520107746e-48
27.478099379875978,2.4057961635506654e-48
27.6306999319864,3.3077540809477815e-48
27.78330048409682,4.5457477470759015e-48
27.935901036207245,6.244176675830309e-48
28.088501588317666,8.573196254724095e-48
28.241102140428087,1.1765437489020026e-47
28.39370269253851,1.61387958591466e-47
28.546303244648932,2.2127477508726797e-47
28.698903796759353,3.0324274555317168e-47
28.851504348869778,4.153810353408008e-47
29.0041049009802,5.687228023524648e-47
29.15670545309062,7.783095336100709e-47
29.30930600520104,1.0646375788480694e-46
29.461906557311465,1.4556231877192718e-46
29.614507109421886,1.989270632077492e-46
29.767107661532307,2.71729324632799e-46
29.919708213642732,3.710025374347505e-46
30.072308765753153,5.063082252732138e-46
30.224909317863574,6.906385530120261e-46
30.377509869974,9.41638887338707e-46
30.53011042208442,1.2832630376515483e-45
30.68271097419484,1.7480132383944387e-45
30.835311526305265,2.3799699950171053e-45
30.987912078415686,3.238888358518424e-45
31.140512630526107,4.4057333393283393e-45
31.293113182636528,5.990156498907752e-45
31.445713734746953,8.140589634101692e-45
31.598314286857374,1.1057865127038217e-44
31.750914838967795,1.501358637320793e-44
31.90351539107822,2.0374893032721842e-44
32.05611594318864,2.7637831216763256e-44
32.20871649529906,3.7472296993057815e-44
32.36131704740948,5.078253809609812e-44
32.5139175995199,6.87885607376812e-44
32.66651815163033,9.313561248132559e-44
32.81911870374075,1.260413538342948e-43
32.97171925585117,1.7049359805740553e-43
33.12431980796159,2.3051586742658313e-43
33.27692036007201,3.1152385361793526e-43
33.42952091218243,4.2080367133383904e-43
33.58212146429286,5.681532118882376e-43
33.73472201640328,7.667418077595417e-43
33.8873225685137,1.0342619680334606e-42
34.039923120624124,1.3944716776428644e-42
34.192523672734545,1.8792587160354687e-42
34.345124224844966,2.531402360347276e-42
34.49772477695539,3.408266301182435e-42
34.650325329065815,4.5867344014765996e-42
34.802925881176236,6.169804417577315e-42
34.95552643328666,8.295392389801354e-42
35.10812698539708,1.1148083243865914e-41
35.2607275375075,1.4974805985547738e-41
35.41332808961792,2.0105734255790592e-41
35.56592864172834,2.698214078862108e-41
35.71852919383877,3.619350165568463e-41
35.87112974594919,4.852689825685389e-41
36.02373029805961,6.503276149185746e-41
36.17633085017003,8.711232220043706e-41
36.32893140228045,1.1663387874838917e-40
36.481531954390874,1.5608730368789882e-40
36.6341325065013,2.08789267512046e-40
36.78673305861172,2.791556968688725e-40
36.939333610722144,3.730633209398304e-40
37.091934162832565,4.9832920602912165e-40
37.244534714942986,6.653464781683822e-40
37.39713526705341,8.879267013600685e-40
37.54973581916383,1.1844155543202884e-39
37.70233637127426,1.579169765364513e-39
37.85493692338468,2.1045113439873036e-39
38.0075374754951,2.803312115719189e-39
38.16013802760552,3.7324102142810866e-39
38.31273857971594,4.967124170483094e-39
38.46533913182636,6.60721435545228e-39
38.61793968393679,8.784752067150797e-39
38.77054023604721,1.1674501716485388e-38
38.92314078815763,1.550761213274317e-38
39.07574134026805,2.0589663041180936e-38
39.228341892378474,2.7324440666560854e-38
39.380942444488895,3.6245246224989275e-38
39.533542996599316,4.805610417825335e-38
39.686143548709744,6.368597452177017e-38
39.838744100820165,8.436003852793926e-38
39.991344652930586,1.1169338999623273e-37
40.14394520504101,1.478141150488301e-37
40.29654575715143,1.9552490124804924e-37
40.44914630926185,2.5851513545636576e-37
40.60174686137228,3.4163913003899663e-37
40.7543474134827,4.512809196971969e-37
40.90694796559312,5.958323357243351e-37
41.05954851770354,7.863192317240131e-37
41.21214906981396,1.0372213775202675e-36
41.36474962192438,1.3675453996063926e-36
41.5173501740348,1.8022281917291732e-36
41.66995072614523,2.373971699232027e-36
41.82255127825565,3.125640517385672e-36
41.97515183036607,4.113393438354519e-36
42.127752382476494,5.4107716547116784e-36
42.280352934586915,7.114033301405428e-36
42.432953486697336,9.349110948973978e-36
42.585554038807764,1.2280681439840284e-35
42.738154590918185,1.6123983700459947e-35
42.890755143028606,2.1160209699852201e-35
43.04335569513903,2.775653925738205e-35
43.19595624724945,3.6392207315363203e-35
43.34855679935987,4.7692403719293797e-35
43.50115735147029,6.247233773568538e-35
43.65375790358072,8.179448759000367e-35
43.80635845569114,1.070429444365163e-34
43.95895900780156,1.4001990857415511e-34
44.11155955991198,1.8307087827148928e-34
44.2641601120224,2.3924698454182246e-34
44.41676066413282,3.125153923649278e-34
44.569361216243244,4.080318691578404e-34
44.72196176835367,5.324937188717723e-34
44.87456232046409,6.9459655689114615e-34
45.027162872574515,9.056251929430059e-34
45.179763424684936,1.1802176272736893e-33
45.33236397679536,1.5373524014269707e-33
45.48496452890578,2.001623986058742e-33
45.637565081016206,2.6048894393963518e-33
45.79016563312663,3.388393389175974e-33
45.94276618523705,4.405508959055587e-33
46.09536673734747,5.725271470431829e-33
46.24796728945789,7.436932020504226e-33
46.40056784156831,9.655822455135846e-33
46.55316839367873,1.2530905761421553e-32
46.70576894578916,1.6254491526937193e-32
46.85836949789958,2.1074731259756446e-32
47.01097005001,2.7311681203184314e-32
47.16357060212042,3.53779412147713e-32
47.316171154230844,4.580516055424014e-32
47.468771706341265,5.927806189066196e-32
47.62137225845169,7.667809492635275e-32
47.773972810562114,9.913941798468368e-32
47.926573362672535,1.2812065433037868e-31
48.079173914782956,1.6549682383231324e-31
48.23177446689338,2.136770656183195e-31
48.3843750190038,2.757553143676347e-31
48.53697557111422,3.557030615539327e-31
48.68957612322465,4.586158369826868e-31
48.84217667533507,5.910282293678537e-31
48.99477722744549,7.613163097725329e-31
49.14737777955591,9.802114591827345e-31
49.29997833166633,1.2614561230360426e-30
49.45257888377675,1.6226402899750242e-30
49.60517943588718,2.086267985369056e-30
49.7577799879976,2.6811163706099224e-30
49.91038054010802,3.443966889439672e-30
50.06298109221844,4.421809239390543e-30
50.215581644328864,5.67464595096355e-30
50.368182196439285,7.279059517932041e-30
50.520782748549706,9.332747214007509e-30
50.673383300660134,1.1960283314388093e-29
50.825983852770555,1.5320437385399738e-29
50.978584404880976,1.9615464346761597e-29
51.1311849569914,2.5102891844139226e-29
51.28378550910182,3.211046899352005e-29
51.43638606121224,4.105511518092566e-29
51.58898661332266,5.246692761806677e-29
51.74158716543309,6.701958342935097e-29
51.89418771754351,8.556882080065274e-29
52.04678826965393,1.0920112248025761e-28
52.19938882176435,1.3929527663919633e-28
52.35198937387477,1.776001835054949e-28
52.504589925985194,2.2633314723704155e-28
52.65719047809562,2.883039861534495e-28
52.80979103020604,3.6707166691045363e-28
52.962391582316464,4.671418896854547e-28
53.114992134426885,5.942162096251952e-28
53.267592686537306,7.555059841112424e-28
53.42019323864773,9.601278223208965e-28
53.57279379075815,1.21960145328051e-27
53.725394342868576,1.548476233188931e-27
53.877994894979,1.965119146357615e-27
54.03059544708942,2.492705445465604e-27
54.18319599919984,3.1604634350513123e-27
54.33579655131026,4.005237835997017e-27
54.48839710342068,5.0734523105219984e-27
54.64099765553111,6.4235718624167974e-27
54.79359820764153,8.129190931266905e-27
54.94619875975195,1.0282904282668893e-26
55.09879931186237,1.300115676028236e-26
55.25139986397279,1.643031647131983e-26
55.404000416083214,2.0754276331065755e-26
55.556600968193635,2.620396395052757e-26
55.70920152030406,3.3069233149917433e-26
55.861802072414484,4.1713726293409387e-26
56.014402624524905,5.259344057632995e-26
56.167003176635326,6.627991003913258e-26
56.31960372874575,8.348913669055616e-26
56.47220428085617,1.0511767888973588e-25
56.624804832966596,1.3228764564359595e-25
56.77740538507702,1.6640276723690286e-25
56.93000593718744,2.0921823475323824e-25
57.08260648929786,2.6292764713032113e-25
57.23520704140828,3.3027120343886764e-25
57.3878075935187,4.146702657948771e-25
57.54040814562912,5.203946386433589e-25
57.69300869773955,6.527704171027059e-25
57.84560924984997,8.184381170109013e-25
57.99820980196039,1.0256730937934821e-24
58.15081035407081,1.2847830863609403e-24
58.303410906181234,1.6086012087305118e-24
58.456011458291655,2.0130970065386882e-24
58.60861201040208,2.5181334826269554e-24
58.761212562512505,3.148404501538617e-24
58.913813114622926,3.9345949838855715e-24
59.06641366673335,4.914816136888756e-24
59.21901421884377,6.1363800513201515e-24
59.37161477095419,7.657992834077914e-24
59.52421532306461,9.552463658607557e-24
59.67681587517504,1.1910049458089318e-23
59.82941642728546,1.484258238119229e-23
59.98201697939588,1.848856070254611e-23
60.1346175315063,2.3019425001899975e-23
60.28721808361672,2.864729176925402e-23
60.43981863572714,3.563447819443453e-23
60.592419187837564,4.430522723774309e-23
60.74501973994799,5.506013416965803e-23
60.89762029205841,6.839388828005144e-23
61.050220844168834,8.491708084911898e-23
61.202821396279255,1.053829981586728e-22
61.355421948389676,1.3072052287912827e-22
61.5080225005001,1.620745165730741e-22
61.660623052610525,2.0085535998856128e-22
61.813223604720946,2.487996980049374e-22
61.96582415683137,3.080448867545447e-22
62.11842470894179,3.812201887853528e-22
62.27102526105221,4.715584289833894e-22
62.42362581316263,5.8303263453676785e-22
62.57622636527305,7.205231669578728e-22
62.72882691738348,8.900220498991238e-22
62.8814274694939,1.0988826476563598e-21
63.03402802160432,1.3561246095172176e-21
63.18662857371474,1.6728061292185961e-21
63.33922912582516,2.0624781547941485e-21
63.491829677935584,2.5417383160978e-21
63.64443023004601,3.13090612859907e-21
63.79703078215643,3.854845619083124e-21
63.949631334266854,4.743967065794592e-21
64.10223188637728,5.8354462497318284e-21
64.25483243848771,7.174707712480795e-21
64.40743299059812,8.817228294187847e-21
64.56003354270855,1.0830729025197378e-20
64.71263409481897,1.3297837677156699e-20
64.8652346469294,1.631932143651898e-20
65.01783519903981,2.001800983568001e-20
65.17043575115024,2.4543552971809345e-20
65.32303630326066,3.0078190007600006e-20
65.47563685537108,3.684373899533495e-20
65.6282374074815,4.5110062408098605e-20
65.78083795959192,5.520531484904908e-20
65.93343851170235,6.75283419731287e-20
66.08603906381276,8.256367476333293e-20
66.23863961592319,1.008996534241155e-19
66.39124016803362,1.2325032323174126e-19
66.54384072014403,1.504818742261139e-19
66.69644127225446,1.836445518235027e-19
66.84904182436487,2.2401115125655194e-19
67.0016423764753,2.7312343113679095e-19
67.15424292858573,3.328480474395452e-19
67.30684348069614,4.054439272202098e-19
67.45944403280657,4.936433813506686e-19
67.61204458491699,6.007497093549736e-19
67.76464513702741,7.307545910766585e-19
67.91724568913783,8.884792060986517e-19
68.06984624124826,1.0797437923320243e-18
68.22244679335869,1.3115712734179729e-18
68.3750473454691,1.5924316783041827e-18
68.52764789757953,1.9325353784085722e-18
68.68024844968994,2.3441847170432267e-18
68.83284900180037,2.8421954482005457e-18
68.98544955391078,3.4444015917199777e-18
69.13805010602121,4.1722599134274715e-18
69.29065065813164,5.051573327807047e-18
69.44325121024205,6.113356186515603e-18
69.59585176235248,7.394868763961085e-18
69.7484523144629,8.940853405461783e-18
69.90105286657332,1.08050109104988e-17
70.05365341868374,1.305176295551188e-17
70.20625397079417,1.5758354920266343e-17
70.3588545229046,1.9017363607337194e-17
70.51145507501501,2.2939686315890717e-17
70.66405562712544,2.7658101877670484e-17
70.81665617923585,3.3331510971259755e-17
70.96925673134628,4.014998275351949e-17
71.12185728345669,4.83407581160851e-17
71.27445783556712,5.817538731294363e-17
71.42705838767755,6.997821204195946e-17
71.57965893978796,8.413644015322214e-17
71.73225949189839,1.0111210599943863e-16
71.8848600440088,1.2145626220731807e-16
72.03746059611923,1.4582581069982066e-16
72.19006114822966,1.7500345373264953e-16
72.34266170034007,2.099213313873091e-16
72.4952622524505,2.5168901256008126e-16
72.64786280456092,3.0162662453571157e-16
72.80046335667134,3.613040446892137e-16
72.95306390878176,4.3258724015849295e-16
