E(cm-1),I
0.01,4.1157379845477976e-42
0.20697546709341869,6.0360388058098e-42
0.40395093418683736,8.845437550418063e-42
0.600926401280256,1.2952381016306394e-41
0.7979018683736747,1.895146970067206e-41
0.9948773354670934,2.7707616807458214e-41
1.191852802560512,4.047794382425521e-41
1.3888282696539307,5.908819277476499e-41
1.5858037367473494,8.618783356025623e-41
1.7827792038407682,1.2561867686819491e-40
1.9797546709341869,1.8294706998283824e-40
2.1767301380276054,2.6623165708024277e-40
2.3737056051210237,3.871300873268367e-40
2.5706810722144424,5.624930347324139e-40
2.767656539307861,8.166582726569612e-40
2.96463200640128,1.1847496138511987e-39
3.1616074734946986,1.7174170856315723e-39
3.3585829405881173,2.487642544960135e-39
3.555558407681536,3.600502904587344e-39
3.752533874774955,5.2071651118972266e-39
3.9495093418683735,7.524931055129725e-39
4.146484808961792,1.0865924795677836e-38
4.343460276055211,1.56781154402997e-38
4.540435743148629,2.2603933147249393e-38
4.737411210242048,3.256395633498907e-38
4.934386677335467,4.687629800970408e-38
5.131362144428885,6.742678348774375e-38
5.328337611522304,9.69113340767429e-38
5.5253130786157225,1.3918091739736017e-37
5.722288545709142,1.9973207356250008e-37
5.91926401280256,2.864038950495889e-37
6.116239479895979,4.103675605225314e-37
6.3132149469893974,5.875300964375157e-37
6.510190414082816,8.405241720532568e-37
6.707165881176235,1.2015263235357847e-36
6.904141348269653,1.716245318736196e-36
7.101116815363072,2.4495619912692743e-36
7.298092282456491,3.4934979838556543e-36
7.49506774954991,4.978466080761764e-36
7.692043216643328,7.089140788756104e-36
7.889018683736747,1.0086828656945161e-35
8.085994150830166,1.434097501240616e-35
8.282969617923584,2.037350301363475e-35
8.479945085017002,2.8921161455152593e-35
8.676920552110422,4.102312547204406e-35
8.87389601920384,5.814397970426405e-35
9.070871486297259,8.234623664931945e-35
9.267846953390677,1.1653214789015644e-34
9.464822420484095,1.6478236813632258e-34
9.661797887577515,2.328298840430659e-34
9.858773354670934,3.2872270128899196e-34
10.055748821764352,4.637497255925328e-34
10.25272428885777,6.537333298023532e-34
10.44969975595119,9.208323807206272e-34
10.646675223044609,1.2960552964634112e-33
10.843650690138027,1.8227599306737704e-33
11.040626157231445,2.5615238752228112e-33
11.237601624324864,3.596916338977826e-33
11.434577091418284,5.046906493731411e-33
11.631552558511702,7.075924226759623e-33
11.82852802560512,9.912976623645995e-33
12.025503492698538,1.387675701764916e-32
12.222478959791959,1.9410417599859115e-32
12.419454426885377,2.7129686014234126e-32
12.616429893978795,3.788939313184333e-32
12.813405361072213,5.287538279322054e-32
13.010380828165632,7.373138518178133e-32
13.207356295259052,1.0273401347807693e-31
13.40433176235247,1.43033942730948e-31
13.601307229445888,1.9898803286315574e-31
13.798282696539307,2.766163208674503e-31
13.995258163632727,3.8423032312815775e-31
14.192233630726145,5.3329617003686495e-31
14.389209097819563,7.396193876600195e-31
14.586184564912982,1.0249698775530158e-30
14.7831600320064,1.4193088510371672e-30
14.98013549909982,1.9638382442892617e-30
15.177110966193238,2.715173016496124e-30
15.374086433286656,3.751045204818097e-30
15.571061900380075,5.1780957921274804e-30
15.768037367473495,7.142509985709568e-30
15.965012834566913,9.844521810000287e-30
16.161988301660333,1.3558179774345736e-29
16.358963768753753,1.86582601547386e-29
16.55593923584717,2.565688299937051e-29
16.75291470294059,3.525328862667731e-29
16.949890170034006,4.8401450080185716e-29
17.146865637127426,6.640183832207271e-29
17.343841104220846,9.102586742025538e-29
17.540816571314263,1.2468452149917098e-28
17.737792038407683,1.7065666453969713e-28
17.9347675055011,2.3339790682179703e-28
18.13174297259452,3.1895811352503344e-28
18.32871843968794,4.355453131413932e-28
18.525693906781356,5.942867245168061e-28
18.722669373874776,8.102549754706818e-28
18.919644840968193,1.1038508025835627e-27
19.116620308061613,1.5026645554149398e-27
19.313595775155033,2.0439802764606654e-27
19.51057124224845,2.778141439224366e-27
19.70754670934187,3.773071175886491e-27
19.90452217643529,5.120338077336509e-27
20.101497643528706,6.943289432811832e-27
20.298473110622126,9.407947720813153e-27
20.495448577715543,1.2737597316763123e-26
20.692424044808963,1.723229530456457e-26
20.889399511902383,2.3294947462516785e-26
21.0863749789958,3.14661302383408e-26
21.28335044608922,4.247055438913068e-26
21.480325913182636,5.727901196086289e-26
21.677301380276056,7.719089910174472e-26
21.874276847369476,1.0394405967452916e-25
22.071252314462892,1.3986087589424582e-25
22.268227781556313,1.8804240906150682e-25
22.46520324864973,2.526261845092572e-25
22.66217871574315,3.39128206443307e-25
22.85915418283657,4.548963550675388e-25
23.056129649929986,6.097109500202656e-25
23.253105117023406,8.165796004668009e-25
23.450080584116826,1.092788338136503e-24
23.647056051210242,1.4612905338883545e-24
23.844031518303662,1.9525406494640703e-24
24.04100698539708,2.606913320303541e-24
24.2379824524905,3.477892003964971e-24
24.43495791958392,4.636268582167819e-24
24.631933386677336,6.175669923924961e-24
24.828908853770756,8.219824757728025e-24
25.025884320864172,1.0932111073093998e-23
25.222859787957592,1.4528089495391796e-23
25.419835255051012,1.9291943063130473e-23
25.61681072214443,2.5598023333514264e-23
25.81378618923785,3.393906579964002e-23
26.010761656331265,4.496310880266898e-23
26.207737123424685,5.952176115661942e-23
26.404712590518105,7.873325539561661e-23
26.601688057611522,1.0406474844344064e-22
26.798663524704942,1.3743965715276522e-22
26.99563899179836,1.8137752936372937e-22
27.19261445889178,2.3917616330192316e-22
27.3895899259852,3.151485421611747e-22
27.586565393078615,4.1493082968442945e-22
27.783540860172035,5.458824108602629e-22
27.980516327265455,7.176050593039027e-22
28.177491794358872,9.426161526386202e-22
28.374467261452292,1.237220928450596e-21
28.57144272854571,1.6226417002513892e-21
28.76841819563913,2.1264785308010066e-21
28.96539366273255,2.7845971020783534e-21
29.162369129825965,3.643566715942392e-21
29.359344596919385,4.7638061453990735e-21
29.5563200640128,6.223639514096666e-21
29.75329553110622,8.124521151481069e-21
29.950270998199642,1.0597760800220297e-20
30.14724646529306,1.38131728809309e-20
30.34422193238648,1.7990191112507923e-20
30.541197399479895,2.3412139428734677e-20
30.738172866573315,3.0444540393593595e-20
30.935148333666735,3.955858401551084e-20
31.13212380076015,5.136118663451553e-20
31.32909926785357,6.663345859018321e-20
31.52607473494699,8.637989230258988e-20
31.723050202040408,1.1189120641527532e-19
31.920025669133828,1.4482457093681747e-19
32.117001136227245,1.8730593578058328e-19
32.31397660332066,2.4206044455130673e-19
32.51095207041408,3.125785042900756e-19
32.7079275375075,4.033270845796202e-19
32.90490300460092,5.200183415129767e-19
33.101878471694334,6.6995083548239275e-19
33.29885393878775,8.624426012816148e-19
33.495829405881175,1.1093803401133537e-18
33.69280487297459,1.4259152918301558e-18
33.88978034006801,1.8313442309499147e-18
34.08675580716143,2.3502239082953676e-18
34.28373127425485,3.013779624438992e-18
34.480706741348264,3.861684083542783e-18
34.67768220844169,4.944301995941807e-18
34.874657675535104,6.32552001597154e-18
35.07163314262852,8.086311683325888e-18
35.268608609721944,1.032922452318665e-17
35.46558407681536,1.31840231341734e-17
35.66255954390878,1.6814780153889538e-17
35.859535011002194,2.1428779153636646e-17
36.05651047809562,2.7287683122046104e-17
36.253485945189034,3.472153337124493e-17
36.45046141228245,4.4146281506511994e-17
36.647436879375874,5.6085727769887e-17
36.84441234646929,7.119895024838242e-17
37.04138781356271,9.031457051140328e-17
37.23836328065613,1.144735237099372e-16
37.43533874774955,1.4498239911403989e-16
37.632314214842964,1.834799077119366e-16
37.82928968193638,2.320196378980973e-16
38.026265149029804,2.9317300414681877e-16
38.22324061612322,3.7015720826240566e-16
38.42021608321664,4.669941565362284e-16
38.61719155031006,5.887076554582323e-16
38.81416701740348,7.415679001297172e-16
39.011142484496894,9.333943419915351e-16
39.20811795159032,1.1739305594283628e-15
39.405093418683734,1.4753078575275578e-15
39.60206888577715,1.8526181144996343e-15
39.799044352870574,2.3246210205905615e-15
39.99601981996399,2.914616500436361e-15
40.19299528705741,3.6515199888469494e-15
40.38997075415082,4.571186605038434e-15
40.58694622124425,5.718040457404424e-15
40.783921688337664,7.147077690765666e-15
40.98089715543108,8.9263269189062e-15
41.177872622524504,1.113986891806737e-14
41.37484808961792,1.3891539553750344e-14
41.57182355671134,1.7309466667875352e-14
41.76879902380476,2.1551624018156557e-14
41.96577449089818,2.6812624476763438e-14
42.16274995799159,3.333202192524181e-14
42.35972542508502,4.1404448257947816e-14
42.55670089217843,5.139198057408967e-14
42.75367635927185,6.373921632161883e-14
42.95065182636527,7.899163362262839e-14
43.14762729345869,9.781793355491448e-14
43.34460276055211,1.2103720470688052e-13
43.54157822764552,1.496519225192379e-13
43.73855369473895,1.8488800230315172e-13
43.93552916183236,2.282433719330882e-13
44.13250462892578,2.8154682581456483e-13
44.3294800960192,3.470292750056635e-13
44.52645556311262,4.274099301813377e-13
44.72343103020604,5.260004572891232e-13
44.92040649729945,6.4683074537316e-13
45.11738196439288,7.948006399574344e-13
45.31435743148629,9.75862844550935e-13
45.51133289857971,1.197243201929318e-12
45.70830836567313,1.4677057648286707e-12
45.90528383276655,1.797871486551494e-12
46.102259299859966,2.200601045580726e-12
46.29923476695339,2.6914543112822628e-12
46.496210234046806,3.2892413147294616e-12
46.69318570114022,4.016682373372997e-12
46.89016116823365,4.901198305137503e-12
47.08713663532706,5.975855543336438e-12
47.28411210242048,7.28049552962602e-12
47.481087569513896,8.863083135653522e-12
47.67806303660732,1.0781315181738382e-11
47.875038503700736,1.3104537541477284e-11
48.07201397079415,1.5916028028515016e-11
48.268989437887576,1.931571246889849e-11
48.46596490498099,2.3423393315910098e-11
48.66294037207441,2.8382584148880402e-11
48.85991583916783,3.436505974200038e-11
49.05689130626125,4.157625047270184e-11
49.253866773354666,5.02616320983614e-11
49.45084224044808,6.071428786717075e-11
49.647817707541506,7.328385012116369e-11
49.84479317463492,8.838706365892764e-11
50.04176864172834,1.0652025391183178e-10
50.23874410882176,1.2827403031999394e-10
50.43571957591518,1.5435061016708973e-10
50.632695043008596,1.8558421168208422e-10
50.82967051010202,2.2296503873688754e-10
51.026645977195436,2.6766746443817437e-10
51.22362144428885,3.2108311900963514e-10
51.420596911382276,3.8485970049763094e-10
51.61757237847569,4.609464571771573e-10
51.81454784556911,5.516474405447407e-10
52.011523312662526,6.596838002443039e-10
52.20849877975595,7.882665903302132e-10
52.405474246849366,9.411817834846058e-10
52.60244971394278,1.1228894501855538e-09
52.799425181036206,1.3386393578875671e-09
52.99640064812962,1.5946055861105886e-09
53.19337611522304,1.8980431426500465e-09
53.39035158231646,2.2574700103264587e-09
53.58732704940988,2.682878559970384e-09
53.784302516503296,3.1859808417189978e-09
53.98127798359671,3.780492922161409e-09
54.178253450690136,4.48246417942459e-09
54.37522891778355,5.310658313095795e-09
54.57220438487697,6.286993783342798e-09
54.76917985197039,7.437052477501647e-09
54.96615531906381,8.790666628043961e-09
55.163130786157225,1.0382595390139482e-08
55.36010625325065,1.2253304048711245e-08
55.557081720344065,1.444986058460305e-08
55.75405718743748,1.7026966310011987e-08
55.951032654530906,2.0048139509729667e-08
56.14800812162432,2.3587073524509907e-08
56.34498358871774,2.772919351620511e-08
56.541959055811155,3.257343929420833e-08
56.73893452290458,3.823430509530363e-08
56.935909989997995,4.484417113359096e-08
57.13288545709141,5.255596611657577e-08
57.329860924184835,6.154620480430625e-08
57.52683639127825,7.201845012108579e-08
57.72381185837167,8.420725536836291e-08
57.92078732546509,9.838264879185022e-08
58.11776279255851,1.148552301892732e-07
58.314738259651925,1.3398195747565886e-07
58.51171372674534,1.5617271022391614e-07
58.708689193838765,1.8189772724802604e-07
58.90566466093218,2.1169602637793033e-07
59.1026401280256,2.461849267782108e-07
59.29961559511902,2.860708075811438e-07
59.49659106221244,3.321612513387482e-07
59.693566529305855,3.853787369531923e-07
59.89054199639928,4.46776064431264e-07
60.087517463492695,5.175537131426055e-07
60.28449293058611,5.990793563642221e-07
60.481468397679535,6.929097778912858e-07
60.67844386477295,8.008154615170818e-07
60.87541933186637,9.248081513673665e-07
61.072394798959785,1.0671717105540466e-06
61.26937026605321,1.230496637530825e-06
61.466345733146625,1.4177186340309748e-06
61.66332120024004,1.6321616556884084e-06
61.860296667333465,1.877585916529692e-06
62.05727213442688,2.1582413616185157e-06
62.2542476015203,2.4789271683726805e-06
62.45122306861372,2.8450578865896387e-06
62.64819853570714,3.2627368801371754e-06
62.845174002800555,3.738837789706994e-06
63.04214946989398,4.281094796096872e-06
63.239124936987395,4.898202527274168e-06
63.43610040408081,5.599926520054215e-06
63.63307587117423,6.397225218656258e-06
63.83005133826765,7.302384567710399e-06
64.02702680536107,8.329166336485568e-06
64.2240022724545,9.492971394164623e-06
64.42097773954791,1.0811019242850154e-05
64.61795320664133,1.2302545205541714e-05
64.81492867373476,1.3989016760438026e-05
65.01190414082816,1.589437061040207e-05
65.20887960792159,1.8045272177025534e-05
65.40585507501501,2.047139931215013e-05
65.60283054210842,2.3205752125577113e-05
65.79980600920184,2.6284990935584956e-05
65.99678147629527,2.9749804458266707e-05
66.19375694338868,3.364531046202301e-05
66.3907324104821,3.8021491224100134e-05
66.58770787757551,4.293366623611029e-05
66.78468334466893,4.8443004714150054e-05
66.98165881176236,5.461708057546916e-05
67.17863427885577,6.153047264661282e-05
67.37560974594919,6.926541296637177e-05
67.57258521304261,7.791248613945269e-05
67.76956068013602,8.757138278219067e-05
67.96653614722945,9.835171017828542e-05
68.16351161432287,0.00011037386332890905
68.36048708141628,0.00012376995963588283
68.5574625485097,0.00013868484049704902
68.75443801560313,0.00015527714311760533
68.95141348269654,0.00017372044584795603
69.14838894978996,0.00019420449034539104
69.34536441688338,0.0002169364838213945
69.5423398839768,0.00024214248457640544
69.73931535107022,0.00027006887393681575
69.93629081816364,0.0003009839175926415
70.13326628525705,0.0003351794191860942
70.33024175235047,0.0003729724688186751
70.5272172194439,0.00041470728892491074
70.72419268653731,0.00046075717970211734
70.92116815363073,0.0005115265659849128
71.11814362072414,0.0005674531471083715
71.31511908781756,0.0006290101509126925
71.51209455491099,0.0006967086926022187
71.7090700220044,0.0007711002386816152
71.90604548909782,0.0008527791756491996
72.10302095619124,0.0009423854825310366
72.29999642328465,0.0010406075056879022
72.49697189037808,0.0011481848336196703
72.6939473574715,0.001265911268727301
72.89092282456491,0.0013946378921720175
73.08789829165833,0.001535276217093442
73.28487375875176,0.001688801424515354
73.48184922584517,0.0018562556752800446
73.67882469293859,0.002038751490311864
73.87580016003201,0.0022374751904197148
74.07277562712542,0.0024536903857110435
74.26975109421885,0.0026887415035085523
74.46672656131227,0.0029440573424408182
74.66370202840568,0.0032211546391251785
74.8606774954991,0.003521641632579412
75.05765296259253,0.0038472216101968935
75.25462842968594,0.004199696417804629
75.45160389677936,0.004580969915002946
75.64857936387277,0.004993051355668389
75.8455548309662,0.005438058672200186
76.04253029805962,0.005918221640810311
76.23950576515303,0.00643588490391681
76.43648123224645,0.006993510824503769
76.63345669933987,0.007593682146177501
76.83043216643328,0.00823910443158794
77.0274076335267,0.008932608250910613
77.22438310062013,0.009677151091210982
77.42135856771354,0.01047581895675836
77.61833403480696,0.011331827629728347
77.81530950190039,0.012248523560250715
78.0122849689938,0.013229384354439228
78.20926043608722,0.014278018828889528
78.40623590318064,0.015398166600170588
78.60321137027405,0.016593697178077602
78.80018683736748,0.017868608531868484
78.9971623044609,0.019227025099386327
79.19413777155431,0.02067319520989372
79.39111323864773,0.02221148789260814
79.58808870574116,0.023846389044351875
79.78506417283457,0.025582496931418806
79.98203963992799,0.027424517002713443
80.17901510702141,0.02937725599344478
80.37599057411482,0.03144561530116227
80.57296604120825,0.03363458361869228
80.76994150830166,0.03594922881157709
80.96691697539508,0.03839468903093234
81.1638924424885,0.04097616305619553
81.36086790958191,0.04369889986605694
81.55784337667534,0.04656818743990158
81.75481884376876,0.04958934079634854
81.95179431086217,0.052767689279933916
82.1487697779556,0.05610856311160857
82.34574524504902,0.05961727922349935
82.54272071214243,0.06329912640329248
82.73969617923585,0.0671593497785839
82.93667164632927,0.07120313467659681
83.13364711342268,0.07543558989975149
83.3306225805161,0.07986173046263387
83.52759804760953,0.08448645984092425
83.72457351470294,0.08931455178778047
83.92154898179636,0.09435063177795433
84.11852444888979,0.09959915814453313
84.3154999159832,0.10506440297760498
84.51247538307662,0.11075043285826747
84.70945085017004,0.11666108950522572
84.90642631726345,0.12279997041470876
85.10340178435688,0.12917040957750864
85.30037725145029,0.13577545835959073
85.49735271854371,0.14261786663492337
85.69432818563713,0.149700064260815
85.89130365273054,0.15702414298720907
86.08827911982397,0.16459183889192383
86.28525458691739,0.17240451543379207
86.4822300540108,0.18046314721501042
86.67920552110422,0.1887683045427052
86.87618098819765,0.19732013887778027
87.07315645529106,0.2061183692565326
87.27013192238448,0.21516226976725977
87.4671073894779,0.22445065816017698
87.66408285657131,0.23398188566443975
87.86105832366474,0.24375382808088733
88.05803379075816,0.2537638782133542
88.25500925785157,0.26400893969508493
88.45198472494499,0.27448542225989814
88.64896019203842,0.2851892385003872
88.84593565913183,0.29611580214765904
89.04291112622525,0.3072600278989035
89.23988659331867,0.3186163328105547
89.43686206041208,0.33017863926604313
89.6338375275055,0.3419403795181201
89.83081299459892,0.3538945017966248
90.02778846169234,0.36603347796342045
90.22476392878576,0.37834931268704863
90.42173939587917,0.3908335541006553
90.6187148629726,0.4034773058978767
90.81569033006602,0.41627124081279043
91.01266579715943,0.42920561542183916
91.20964126425285,0.44227028619780756
91.40661673134628,0.4554547267386411
91.60359219843969,0.46874804608720105
91.80056766553311,0.4821390080519561
91.99754313262653,0.49561605143325194
92.19451859971994,0.5091673110552322
92.39149406681337,0.5227806394996924
92.58846953390679,0.5364436294352424
92.7854450010002,0.550143636433173
92.98242046809362,0.5638678021603266
93.17939593518705,0.5776030778391426
93.37637140228045,0.591336247865904
93.57334686937388,0.6050539534799761
93.7703223364673,0.6187427163795584
93.96729780356071,0.6323889621831543
94.16427327065414,0.6459790436404911
94.36124873774754,0.6594992635020227
94.55822420484097,0.6729358969623916
94.75519967193439,0.6862752136001189
94.9521751390278,0.6995034987434675
95.14915060612122,0.7126070742006052
95.34612607321465,0.7255723183009258
95.54310154030806,0.7383856852035543
95.74007700740148,0.751033723438507
